# === DATA DESCRIPTION FILE ======================================================
#
# CAUTION - Investigational device.
# Limited by Federal Law to investigational use.
#
# Dataset name: X:\\Export\\CrMap12_WIP_cwSpiral2s_5_1
#
# CLINICAL TRYOUT             Research image export tool     V4.2
#
# === GENERAL INFORMATION ========================================================
#
.    Patient name                       :   CrMap12
.    Examination name                   :   /g5/kirby/kwang101/Data/CrMap/CrMap12
.    Protocol name                      :   WIP cwSpiral2s
.    Examination date/time              :   2023.07.07 / 10:58:30
.    Series Type                        :   Image   MRSERIES
.    Acquisition nr                     :   5
.    Reconstruction nr                  :   1
.    Scan Duration [sec]                :   286
.    Max. number of cardiac phases      :   1
.    Max. number of echoes              :   1
.    Max. number of slices/locations    :   25
.    Max. number of dynamics            :   69
.    Max. number of mixes               :   1
.    Patient position                   :   Head First Supine
.    Preparation direction              :   Anterior-Posterior
.    Technique                          :   TFE
.    Scan resolution  (x, y)            :   48  48
.    Scan mode                          :   3D
.    Repetition time [ms]               :   27.624  
.    FOV (ap,fh,rl) [mm]                :   220.000  125.000  220.000
.    Water Fat shift [pixels]           :   0.869
.    Angulation midslice(ap,fh,rl)[degr]:   -1.196  4.088  -9.641
.    Off Centre midslice(ap,fh,rl) [mm] :   -2.186  -7.513  -0.764
.    Flow compensation <0=no 1=yes> ?   :   0
.    Presaturation     <0=no 1=yes> ?   :   0
.    Phase encoding velocity [cm/sec]   :   0.000000  0.000000  0.000000
.    MTC               <0=no 1=yes> ?   :   1
.    SPIR              <0=no 1=yes> ?   :   0
.    EPI factor        <0,1=no EPI>     :   1
.    Dynamic scan      <0=no 1=yes> ?   :   1
.    Diffusion         <0=no 1=yes> ?   :   0
.    Diffusion echo time [ms]           :   0.0000
.    Max. number of diffusion values    :   1
.    Max. number of gradient orients    :   1
.    Number of label types   <0=no ASL> :   0
#
# === PIXEL VALUES =============================================================
#  PV = pixel value in REC file, FP = floating point value, DV = displayed value on console
#  RS = rescale slope,           RI = rescale intercept,    SS = scale slope
#  DV = PV * RS + RI             FP = DV / (RS * SS)
#
# === IMAGE INFORMATION DEFINITION =============================================
#  The rest of this file contains ONE line per image, this line contains the following information:
#
#  slice number                             (integer)
#  echo number                              (integer)
#  dynamic scan number                      (integer)
#  cardiac phase number                     (integer)
#  image_type_mr                            (integer)
#  scanning sequence                        (integer)
#  index in REC file (in images)            (integer)
#  image pixel size (in bits)               (integer)
#  scan percentage                          (integer)
#  recon resolution (x y)                   (2*integer)
#  rescale intercept                        (float)
#  rescale slope                            (float)
#  scale slope                              (float)
#  window center                            (integer)
#  window width                             (integer)
#  image angulation (ap,fh,rl in degrees )  (3*float)
#  image offcentre (ap,fh,rl in mm )        (3*float)
#  slice thickness (in mm )                 (float)
#  slice gap (in mm )                       (float)
#  image_display_orientation                (integer)
#  slice orientation ( TRA/SAG/COR )        (integer)
#  fmri_status_indication                   (integer)
#  image_type_ed_es  (end diast/end syst)   (integer)
#  pixel spacing (x,y) (in mm)              (2*float)
#  echo_time                                (float)
#  dyn_scan_begin_time                      (float)
#  trigger_time                             (float)
#  diffusion_b_factor                       (float)
#  number of averages                       (integer)
#  image_flip_angle (in degrees)            (float)
#  cardiac frequency   (bpm)                (integer)
#  minimum RR-interval (in ms)              (integer)
#  maximum RR-interval (in ms)              (integer)
#  TURBO factor  <0=no turbo>               (integer)
#  Inversion delay (in ms)                  (float)
#  diffusion b value number    (imagekey!)  (integer)
#  gradient orientation number (imagekey!)  (integer)
#  contrast type                            (string)
#  diffusion anisotropy type                (string)
#  diffusion (ap, fh, rl)                   (3*float)
#  label type (ASL)            (imagekey!)  (integer)
#
# === IMAGE INFORMATION ==========================================================
#  sl ec  dyn ph ty    idx pix scan% rec size                (re)scale              window        angulation              offcentre        thick   gap   info      spacing     echo     dtime   ttime    diff  avg  flip    freq   RR-int  turbo delay b grad cont anis         diffusion       L.ty

  1   1    1  1 0 2     0  16   100   64   64     0.00000   1.24029  1.35148e-05   833  1448  -1.20   4.09  -9.64  -12.23  -66.65    0.49  5.000  0.000 0 1 0 2  3.438  3.438   1.30    0.00     0.00    0.00   1   15.00     0    0    0    25   0.0  1   1    7    0   0.000    0.000    0.000  1
  2   1    1  1 0 2     1  16   100   64   64     0.00000   1.24029  1.35148e-05  1016  1765  -1.20   4.09  -9.64  -11.39  -61.72    0.38  5.000  0.000 0 1 0 2  3.438  3.438   1.30    0.00     0.00    0.00   1   15.00     0    0    0    25   0.0  1   1    7    0   0.000    0.000    0.000  1
  3   1    1  1 0 2     2  16   100   64   64     0.00000   1.24029  1.35148e-05  1121  1948  -1.20   4.09  -9.64  -10.56  -56.80    0.28  5.000  0.000 0 1 0 2  3.438  3.438   1.30    0.00     0.00    0.00   1   15.00     0    0    0    25   0.0  1   1    7    0   0.000    0.000    0.000  1
  4   1    1  1 0 2     3  16   100   64   64     0.00000   1.24029  1.35148e-05  1083  1882  -1.20   4.09  -9.64   -9.72  -51.87    0.18  5.000  0.000 0 1 0 2  3.438  3.438   1.30    0.00     0.00    0.00   1   15.00     0    0    0    25   0.0  1   1    7    0   0.000    0.000    0.000  1
  5   1    1  1 0 2     4  16   100   64   64     0.00000   1.24029  1.35148e-05  1122  1951  -1.20   4.09  -9.64   -8.88  -46.94    0.07  5.000  0.000 0 1 0 2  3.438  3.438   1.30    0.00     0.00    0.00   1   15.00     0    0    0    25   0.0  1   1    7    0   0.000    0.000    0.000  1
  6   1    1  1 0 2     5  16   100   64   64     0.00000   1.24029  1.35148e-05  1301  2261  -1.20   4.09  -9.64   -8.05  -42.01   -0.03  5.000  0.000 0 1 0 2  3.438  3.438   1.30    0.00     0.00    0.00   1   15.00     0    0    0    25   0.0  1   1    7    0   0.000    0.000    0.000  1
  7   1    1  1 0 2     6  16   100   64   64     0.00000   1.24029  1.35148e-05  1358  2360  -1.20   4.09  -9.64   -7.21  -37.08   -0.14  5.000  0.000 0 1 0 2  3.438  3.438   1.30    0.00     0.00    0.00   1   15.00     0    0    0    25   0.0  1   1    7    0   0.000    0.000    0.000  1
  8   1    1  1 0 2     7  16   100   64   64     0.00000   1.24029  1.35148e-05  1195  2077  -1.20   4.09  -9.64   -6.37  -32.15   -0.24  5.000  0.000 0 1 0 2  3.438  3.438   1.30    0.00     0.00    0.00   1   15.00     0    0    0    25   0.0  1   1    7    0   0.000    0.000    0.000  1
  9   1    1  1 0 2     8  16   100   64   64     0.00000   1.24029  1.35148e-05  1163  2022  -1.20   4.09  -9.64   -5.53  -27.23   -0.35  5.000  0.000 0 1 0 2  3.438  3.438   1.30    0.00     0.00    0.00   1   15.00     0    0    0    25   0.0  1   1    7    0   0.000    0.000    0.000  1
 10   1    1  1 0 2     9  16   100   64   64     0.00000   1.24029  1.35148e-05  1258  2186  -1.20   4.09  -9.64   -4.70  -22.30   -0.45  5.000  0.000 0 1 0 2  3.438  3.438   1.30    0.00     0.00    0.00   1   15.00     0    0    0    25   0.0  1   1    7    0   0.000    0.000    0.000  1
 11   1    1  1 0 2    10  16   100   64   64     0.00000   1.24029  1.35148e-05  1086  1888  -1.20   4.09  -9.64   -3.86  -17.37   -0.56  5.000  0.000 0 1 0 2  3.438  3.438   1.30    0.00     0.00    0.00   1   15.00     0    0    0    25   0.0  1   1    7    0   0.000    0.000    0.000  1
 12   1    1  1 0 2    11  16   100   64   64     0.00000   1.24029  1.35148e-05  1086  1888  -1.20   4.09  -9.64   -3.02  -12.44   -0.66  5.000  0.000 0 1 0 2  3.438  3.438   1.30    0.00     0.00    0.00   1   15.00     0    0    0    25   0.0  1   1    7    0   0.000    0.000    0.000  1
 13   1    1  1 0 2    12  16   100   64   64     0.00000   1.24029  1.35148e-05  1070  1860  -1.20   4.09  -9.64   -2.19   -7.51   -0.76  5.000  0.000 0 1 0 2  3.438  3.438   1.30    0.00     0.00    0.00   1   15.00     0    0    0    25   0.0  1   1    7    0   0.000    0.000    0.000  1
 14   1    1  1 0 2    13  16   100   64   64     0.00000   1.24029  1.35148e-05  1028  1787  -1.20   4.09  -9.64   -1.35   -2.58   -0.87  5.000  0.000 0 1 0 2  3.438  3.438   1.30    0.00     0.00    0.00   1   15.00     0    0    0    25   0.0  1   1    7    0   0.000    0.000    0.000  1
 15   1    1  1 0 2    14  16   100   64   64     0.00000   1.24029  1.35148e-05   963  1675  -1.20   4.09  -9.64   -0.51    2.34   -0.97  5.000  0.000 0 1 0 2  3.438  3.438   1.30    0.00     0.00    0.00   1   15.00     0    0    0    25   0.0  1   1    7    0   0.000    0.000    0.000  1
 16   1    1  1 0 2    15  16   100   64   64     0.00000   1.24029  1.35148e-05   937  1628  -1.20   4.09  -9.64    0.33    7.27   -1.08  5.000  0.000 0 1 0 2  3.438  3.438   1.30    0.00     0.00    0.00   1   15.00     0    0    0    25   0.0  1   1    7    0   0.000    0.000    0.000  1
 17   1    1  1 0 2    16  16   100   64   64     0.00000   1.24029  1.35148e-05   925  1608  -1.20   4.09  -9.64    1.16   12.20   -1.18  5.000  0.000 0 1 0 2  3.438  3.438   1.30    0.00     0.00    0.00   1   15.00     0    0    0    25   0.0  1   1    7    0   0.000    0.000    0.000  1
 18   1    1  1 0 2    17  16   100   64   64     0.00000   1.24029  1.35148e-05   917  1594  -1.20   4.09  -9.64    2.00   17.13   -1.29  5.000  0.000 0 1 0 2  3.438  3.438   1.30    0.00     0.00    0.00   1   15.00     0    0    0    25   0.0  1   1    7    0   0.000    0.000    0.000  1
 19   1    1  1 0 2    18  16   100   64   64     0.00000   1.24029  1.35148e-05   907  1576  -1.20   4.09  -9.64    2.84   22.06   -1.39  5.000  0.000 0 1 0 2  3.438  3.438   1.30    0.00     0.00    0.00   1   15.00     0    0    0    25   0.0  1   1    7    0   0.000    0.000    0.000  1
 20   1    1  1 0 2    19  16   100   64   64     0.00000   1.24029  1.35148e-05   879  1527  -1.20   4.09  -9.64    3.67   26.99   -1.49  5.000  0.000 0 1 0 2  3.438  3.438   1.30    0.00     0.00    0.00   1   15.00     0    0    0    25   0.0  1   1    7    0   0.000    0.000    0.000  1
 21   1    1  1 0 2    20  16   100   64   64     0.00000   1.24029  1.35148e-05   896  1558  -1.20   4.09  -9.64    4.51   31.91   -1.60  5.000  0.000 0 1 0 2  3.438  3.438   1.30    0.00     0.00    0.00   1   15.00     0    0    0    25   0.0  1   1    7    0   0.000    0.000    0.000  1
 22   1    1  1 0 2    21  16   100   64   64     0.00000   1.24029  1.35148e-05   839  1458  -1.20   4.09  -9.64    5.35   36.84   -1.70  5.000  0.000 0 1 0 2  3.438  3.438   1.30    0.00     0.00    0.00   1   15.00     0    0    0    25   0.0  1   1    7    0   0.000    0.000    0.000  1
 23   1    1  1 0 2    22  16   100   64   64     0.00000   1.24029  1.35148e-05   839  1459  -1.20   4.09  -9.64    6.19   41.77   -1.81  5.000  0.000 0 1 0 2  3.438  3.438   1.30    0.00     0.00    0.00   1   15.00     0    0    0    25   0.0  1   1    7    0   0.000    0.000    0.000  1
 24   1    1  1 0 2    23  16   100   64   64     0.00000   1.24029  1.35148e-05   708  1231  -1.20   4.09  -9.64    7.02   46.70   -1.91  5.000  0.000 0 1 0 2  3.438  3.438   1.30    0.00     0.00    0.00   1   15.00     0    0    0    25   0.0  1   1    7    0   0.000    0.000    0.000  1
 25   1    1  1 0 2    24  16   100   64   64     0.00000   1.24029  1.35148e-05   489   851  -1.20   4.09  -9.64    7.86   51.63   -2.02  5.000  0.000 0 1 0 2  3.438  3.438   1.30    0.00     0.00    0.00   1   15.00     0    0    0    25   0.0  1   1    7    0   0.000    0.000    0.000  1
  1   1    2  1 0 2    25  16   100   64   64     0.00000   1.24029  1.35148e-05   865  1504  -1.20   4.09  -9.64  -12.23  -66.65    0.49  5.000  0.000 0 1 0 2  3.438  3.438   1.30    4.16     0.00    0.00   1   15.00     0    0    0    25   0.0  1   1    7    0   0.000    0.000    0.000  1
  2   1    2  1 0 2    26  16   100   64   64     0.00000   1.24029  1.35148e-05  1000  1738  -1.20   4.09  -9.64  -11.39  -61.72    0.38  5.000  0.000 0 1 0 2  3.438  3.438   1.30    4.16     0.00    0.00   1   15.00     0    0    0    25   0.0  1   1    7    0   0.000    0.000    0.000  1
  3   1    2  1 0 2    27  16   100   64   64     0.00000   1.24029  1.35148e-05  1097  1907  -1.20   4.09  -9.64  -10.56  -56.80    0.28  5.000  0.000 0 1 0 2  3.438  3.438   1.30    4.16     0.00    0.00   1   15.00     0    0    0    25   0.0  1   1    7    0   0.000    0.000    0.000  1
  4   1    2  1 0 2    28  16   100   64   64     0.00000   1.24029  1.35148e-05  1072  1863  -1.20   4.09  -9.64   -9.72  -51.87    0.18  5.000  0.000 0 1 0 2  3.438  3.438   1.30    4.16     0.00    0.00   1   15.00     0    0    0    25   0.0  1   1    7    0   0.000    0.000    0.000  1
  5   1    2  1 0 2    29  16   100   64   64     0.00000   1.24029  1.35148e-05  1133  1969  -1.20   4.09  -9.64   -8.88  -46.94    0.07  5.000  0.000 0 1 0 2  3.438  3.438   1.30    4.16     0.00    0.00   1   15.00     0    0    0    25   0.0  1   1    7    0   0.000    0.000    0.000  1
  6   1    2  1 0 2    30  16   100   64   64     0.00000   1.24029  1.35148e-05  1257  2184  -1.20   4.09  -9.64   -8.05  -42.01   -0.03  5.000  0.000 0 1 0 2  3.438  3.438   1.30    4.16     0.00    0.00   1   15.00     0    0    0    25   0.0  1   1    7    0   0.000    0.000    0.000  1
  7   1    2  1 0 2    31  16   100   64   64     0.00000   1.24029  1.35148e-05  1348  2343  -1.20   4.09  -9.64   -7.21  -37.08   -0.14  5.000  0.000 0 1 0 2  3.438  3.438   1.30    4.16     0.00    0.00   1   15.00     0    0    0    25   0.0  1   1    7    0   0.000    0.000    0.000  1
  8   1    2  1 0 2    32  16   100   64   64     0.00000   1.24029  1.35148e-05  1165  2025  -1.20   4.09  -9.64   -6.37  -32.15   -0.24  5.000  0.000 0 1 0 2  3.438  3.438   1.30    4.16     0.00    0.00   1   15.00     0    0    0    25   0.0  1   1    7    0   0.000    0.000    0.000  1
  9   1    2  1 0 2    33  16   100   64   64     0.00000   1.24029  1.35148e-05  1163  2022  -1.20   4.09  -9.64   -5.53  -27.23   -0.35  5.000  0.000 0 1 0 2  3.438  3.438   1.30    4.16     0.00    0.00   1   15.00     0    0    0    25   0.0  1   1    7    0   0.000    0.000    0.000  1
 10   1    2  1 0 2    34  16   100   64   64     0.00000   1.24029  1.35148e-05  1179  2049  -1.20   4.09  -9.64   -4.70  -22.30   -0.45  5.000  0.000 0 1 0 2  3.438  3.438   1.30    4.16     0.00    0.00   1   15.00     0    0    0    25   0.0  1   1    7    0   0.000    0.000    0.000  1
 11   1    2  1 0 2    35  16   100   64   64     0.00000   1.24029  1.35148e-05  1098  1908  -1.20   4.09  -9.64   -3.86  -17.37   -0.56  5.000  0.000 0 1 0 2  3.438  3.438   1.30    4.16     0.00    0.00   1   15.00     0    0    0    25   0.0  1   1    7    0   0.000    0.000    0.000  1
 12   1    2  1 0 2    36  16   100   64   64     0.00000   1.24029  1.35148e-05  1098  1908  -1.20   4.09  -9.64   -3.02  -12.44   -0.66  5.000  0.000 0 1 0 2  3.438  3.438   1.30    4.16     0.00    0.00   1   15.00     0    0    0    25   0.0  1   1    7    0   0.000    0.000    0.000  1
 13   1    2  1 0 2    37  16   100   64   64     0.00000   1.24029  1.35148e-05  1062  1847  -1.20   4.09  -9.64   -2.19   -7.51   -0.76  5.000  0.000 0 1 0 2  3.438  3.438   1.30    4.16     0.00    0.00   1   15.00     0    0    0    25   0.0  1   1    7    0   0.000    0.000    0.000  1
 14   1    2  1 0 2    38  16   100   64   64     0.00000   1.24029  1.35148e-05  1018  1770  -1.20   4.09  -9.64   -1.35   -2.58   -0.87  5.000  0.000 0 1 0 2  3.438  3.438   1.30    4.16     0.00    0.00   1   15.00     0    0    0    25   0.0  1   1    7    0   0.000    0.000    0.000  1
 15   1    2  1 0 2    39  16   100   64   64     0.00000   1.24029  1.35148e-05   952  1655  -1.20   4.09  -9.64   -0.51    2.34   -0.97  5.000  0.000 0 1 0 2  3.438  3.438   1.30    4.16     0.00    0.00   1   15.00     0    0    0    25   0.0  1   1    7    0   0.000    0.000    0.000  1
 16   1    2  1 0 2    40  16   100   64   64     0.00000   1.24029  1.35148e-05   917  1594  -1.20   4.09  -9.64    0.33    7.27   -1.08  5.000  0.000 0 1 0 2  3.438  3.438   1.30    4.16     0.00    0.00   1   15.00     0    0    0    25   0.0  1   1    7    0   0.000    0.000    0.000  1
 17   1    2  1 0 2    41  16   100   64   64     0.00000   1.24029  1.35148e-05   911  1583  -1.20   4.09  -9.64    1.16   12.20   -1.18  5.000  0.000 0 1 0 2  3.438  3.438   1.30    4.16     0.00    0.00   1   15.00     0    0    0    25   0.0  1   1    7    0   0.000    0.000    0.000  1
 18   1    2  1 0 2    42  16   100   64   64     0.00000   1.24029  1.35148e-05   903  1570  -1.20   4.09  -9.64    2.00   17.13   -1.29  5.000  0.000 0 1 0 2  3.438  3.438   1.30    4.16     0.00    0.00   1   15.00     0    0    0    25   0.0  1   1    7    0   0.000    0.000    0.000  1
 19   1    2  1 0 2    43  16   100   64   64     0.00000   1.24029  1.35148e-05   894  1554  -1.20   4.09  -9.64    2.84   22.06   -1.39  5.000  0.000 0 1 0 2  3.438  3.438   1.30    4.16     0.00    0.00   1   15.00     0    0    0    25   0.0  1   1    7    0   0.000    0.000    0.000  1
 20   1    2  1 0 2    44  16   100   64   64     0.00000   1.24029  1.35148e-05   876  1522  -1.20   4.09  -9.64    3.67   26.99   -1.49  5.000  0.000 0 1 0 2  3.438  3.438   1.30    4.16     0.00    0.00   1   15.00     0    0    0    25   0.0  1   1    7    0   0.000    0.000    0.000  1
 21   1    2  1 0 2    45  16   100   64   64     0.00000   1.24029  1.35148e-05   881  1532  -1.20   4.09  -9.64    4.51   31.91   -1.60  5.000  0.000 0 1 0 2  3.438  3.438   1.30    4.16     0.00    0.00   1   15.00     0    0    0    25   0.0  1   1    7    0   0.000    0.000    0.000  1
 22   1    2  1 0 2    46  16   100   64   64     0.00000   1.24029  1.35148e-05   834  1450  -1.20   4.09  -9.64    5.35   36.84   -1.70  5.000  0.000 0 1 0 2  3.438  3.438   1.30    4.16     0.00    0.00   1   15.00     0    0    0    25   0.0  1   1    7    0   0.000    0.000    0.000  1
 23   1    2  1 0 2    47  16   100   64   64     0.00000   1.24029  1.35148e-05   844  1466  -1.20   4.09  -9.64    6.19   41.77   -1.81  5.000  0.000 0 1 0 2  3.438  3.438   1.30    4.16     0.00    0.00   1   15.00     0    0    0    25   0.0  1   1    7    0   0.000    0.000    0.000  1
 24   1    2  1 0 2    48  16   100   64   64     0.00000   1.24029  1.35148e-05   713  1240  -1.20   4.09  -9.64    7.02   46.70   -1.91  5.000  0.000 0 1 0 2  3.438  3.438   1.30    4.16     0.00    0.00   1   15.00     0    0    0    25   0.0  1   1    7    0   0.000    0.000    0.000  1
 25   1    2  1 0 2    49  16   100   64   64     0.00000   1.24029  1.35148e-05   497   864  -1.20   4.09  -9.64    7.86   51.63   -2.02  5.000  0.000 0 1 0 2  3.438  3.438   1.30    4.16     0.00    0.00   1   15.00     0    0    0    25   0.0  1   1    7    0   0.000    0.000    0.000  1
  1   1    3  1 0 2    50  16   100   64   64     0.00000   1.24029  1.35148e-05   775  1347  -1.20   4.09  -9.64  -12.23  -66.65    0.49  5.000  0.000 0 1 0 2  3.438  3.438   1.30    8.33     0.00    0.00   1   15.00     0    0    0    25   0.0  1   1    7    0   0.000    0.000    0.000  1
  2   1    3  1 0 2    51  16   100   64   64     0.00000   1.24029  1.35148e-05   896  1557  -1.20   4.09  -9.64  -11.39  -61.72    0.38  5.000  0.000 0 1 0 2  3.438  3.438   1.30    8.33     0.00    0.00   1   15.00     0    0    0    25   0.0  1   1    7    0   0.000    0.000    0.000  1
  3   1    3  1 0 2    52  16   100   64   64     0.00000   1.24029  1.35148e-05  1005  1747  -1.20   4.09  -9.64  -10.56  -56.80    0.28  5.000  0.000 0 1 0 2  3.438  3.438   1.30    8.33     0.00    0.00   1   15.00     0    0    0    25   0.0  1   1    7    0   0.000    0.000    0.000  1
  4   1    3  1 0 2    53  16   100   64   64     0.00000   1.24029  1.35148e-05   946  1645  -1.20   4.09  -9.64   -9.72  -51.87    0.18  5.000  0.000 0 1 0 2  3.438  3.438   1.30    8.33     0.00    0.00   1   15.00     0    0    0    25   0.0  1   1    7    0   0.000    0.000    0.000  1
  5   1    3  1 0 2    54  16   100   64   64     0.00000   1.24029  1.35148e-05  1054  1833  -1.20   4.09  -9.64   -8.88  -46.94    0.07  5.000  0.000 0 1 0 2  3.438  3.438   1.30    8.33     0.00    0.00   1   15.00     0    0    0    25   0.0  1   1    7    0   0.000    0.000    0.000  1
  6   1    3  1 0 2    55  16   100   64   64     0.00000   1.24029  1.35148e-05  1192  2072  -1.20   4.09  -9.64   -8.05  -42.01   -0.03  5.000  0.000 0 1 0 2  3.438  3.438   1.30    8.33     0.00    0.00   1   15.00     0    0    0    25   0.0  1   1    7    0   0.000    0.000    0.000  1
  7   1    3  1 0 2    56  16   100   64   64     0.00000   1.24029  1.35148e-05  1124  1954  -1.20   4.09  -9.64   -7.21  -37.08   -0.14  5.000  0.000 0 1 0 2  3.438  3.438   1.30    8.33     0.00    0.00   1   15.00     0    0    0    25   0.0  1   1    7    0   0.000    0.000    0.000  1
  8   1    3  1 0 2    57  16   100   64   64     0.00000   1.24029  1.35148e-05  1044  1815  -1.20   4.09  -9.64   -6.37  -32.15   -0.24  5.000  0.000 0 1 0 2  3.438  3.438   1.30    8.33     0.00    0.00   1   15.00     0    0    0    25   0.0  1   1    7    0   0.000    0.000    0.000  1
  9   1    3  1 0 2    58  16   100   64   64     0.00000   1.24029  1.35148e-05  1030  1790  -1.20   4.09  -9.64   -5.53  -27.23   -0.35  5.000  0.000 0 1 0 2  3.438  3.438   1.30    8.33     0.00    0.00   1   15.00     0    0    0    25   0.0  1   1    7    0   0.000    0.000    0.000  1
 10   1    3  1 0 2    59  16   100   64   64     0.00000   1.24029  1.35148e-05  1015  1764  -1.20   4.09  -9.64   -4.70  -22.30   -0.45  5.000  0.000 0 1 0 2  3.438  3.438   1.30    8.33     0.00    0.00   1   15.00     0    0    0    25   0.0  1   1    7    0   0.000    0.000    0.000  1
 11   1    3  1 0 2    60  16   100   64   64     0.00000   1.24029  1.35148e-05   978  1700  -1.20   4.09  -9.64   -3.86  -17.37   -0.56  5.000  0.000 0 1 0 2  3.438  3.438   1.30    8.33     0.00    0.00   1   15.00     0    0    0    25   0.0  1   1    7    0   0.000    0.000    0.000  1
 12   1    3  1 0 2    61  16   100   64   64     0.00000   1.24029  1.35148e-05   975  1695  -1.20   4.09  -9.64   -3.02  -12.44   -0.66  5.000  0.000 0 1 0 2  3.438  3.438   1.30    8.33     0.00    0.00   1   15.00     0    0    0    25   0.0  1   1    7    0   0.000    0.000    0.000  1
 13   1    3  1 0 2    62  16   100   64   64     0.00000   1.24029  1.35148e-05   932  1620  -1.20   4.09  -9.64   -2.19   -7.51   -0.76  5.000  0.000 0 1 0 2  3.438  3.438   1.30    8.33     0.00    0.00   1   15.00     0    0    0    25   0.0  1   1    7    0   0.000    0.000    0.000  1
 14   1    3  1 0 2    63  16   100   64   64     0.00000   1.24029  1.35148e-05   907  1576  -1.20   4.09  -9.64   -1.35   -2.58   -0.87  5.000  0.000 0 1 0 2  3.438  3.438   1.30    8.33     0.00    0.00   1   15.00     0    0    0    25   0.0  1   1    7    0   0.000    0.000    0.000  1
 15   1    3  1 0 2    64  16   100   64   64     0.00000   1.24029  1.35148e-05   898  1560  -1.20   4.09  -9.64   -0.51    2.34   -0.97  5.000  0.000 0 1 0 2  3.438  3.438   1.30    8.33     0.00    0.00   1   15.00     0    0    0    25   0.0  1   1    7    0   0.000    0.000    0.000  1
 16   1    3  1 0 2    65  16   100   64   64     0.00000   1.24029  1.35148e-05   785  1365  -1.20   4.09  -9.64    0.33    7.27   -1.08  5.000  0.000 0 1 0 2  3.438  3.438   1.30    8.33     0.00    0.00   1   15.00     0    0    0    25   0.0  1   1    7    0   0.000    0.000    0.000  1
 17   1    3  1 0 2    66  16   100   64   64     0.00000   1.24029  1.35148e-05   772  1342  -1.20   4.09  -9.64    1.16   12.20   -1.18  5.000  0.000 0 1 0 2  3.438  3.438   1.30    8.33     0.00    0.00   1   15.00     0    0    0    25   0.0  1   1    7    0   0.000    0.000    0.000  1
 18   1    3  1 0 2    67  16   100   64   64     0.00000   1.24029  1.35148e-05   777  1350  -1.20   4.09  -9.64    2.00   17.13   -1.29  5.000  0.000 0 1 0 2  3.438  3.438   1.30    8.33     0.00    0.00   1   15.00     0    0    0    25   0.0  1   1    7    0   0.000    0.000    0.000  1
 19   1    3  1 0 2    68  16   100   64   64     0.00000   1.24029  1.35148e-05   776  1350  -1.20   4.09  -9.64    2.84   22.06   -1.39  5.000  0.000 0 1 0 2  3.438  3.438   1.30    8.33     0.00    0.00   1   15.00     0    0    0    25   0.0  1   1    7    0   0.000    0.000    0.000  1
 20   1    3  1 0 2    69  16   100   64   64     0.00000   1.24029  1.35148e-05   764  1329  -1.20   4.09  -9.64    3.67   26.99   -1.49  5.000  0.000 0 1 0 2  3.438  3.438   1.30    8.33     0.00    0.00   1   15.00     0    0    0    25   0.0  1   1    7    0   0.000    0.000    0.000  1
 21   1    3  1 0 2    70  16   100   64   64     0.00000   1.24029  1.35148e-05   765  1330  -1.20   4.09  -9.64    4.51   31.91   -1.60  5.000  0.000 0 1 0 2  3.438  3.438   1.30    8.33     0.00    0.00   1   15.00     0    0    0    25   0.0  1   1    7    0   0.000    0.000    0.000  1
 22   1    3  1 0 2    71  16   100   64   64     0.00000   1.24029  1.35148e-05   731  1271  -1.20   4.09  -9.64    5.35   36.84   -1.70  5.000  0.000 0 1 0 2  3.438  3.438   1.30    8.33     0.00    0.00   1   15.00     0    0    0    25   0.0  1   1    7    0   0.000    0.000    0.000  1
 23   1    3  1 0 2    72  16   100   64   64     0.00000   1.24029  1.35148e-05   752  1308  -1.20   4.09  -9.64    6.19   41.77   -1.81  5.000  0.000 0 1 0 2  3.438  3.438   1.30    8.33     0.00    0.00   1   15.00     0    0    0    25   0.0  1   1    7    0   0.000    0.000    0.000  1
 24   1    3  1 0 2    73  16   100   64   64     0.00000   1.24029  1.35148e-05   651  1132  -1.20   4.09  -9.64    7.02   46.70   -1.91  5.000  0.000 0 1 0 2  3.438  3.438   1.30    8.33     0.00    0.00   1   15.00     0    0    0    25   0.0  1   1    7    0   0.000    0.000    0.000  1
 25   1    3  1 0 2    74  16   100   64   64     0.00000   1.24029  1.35148e-05   464   806  -1.20   4.09  -9.64    7.86   51.63   -2.02  5.000  0.000 0 1 0 2  3.438  3.438   1.30    8.33     0.00    0.00   1   15.00     0    0    0    25   0.0  1   1    7    0   0.000    0.000    0.000  1
  1   1    4  1 0 2    75  16   100   64   64     0.00000   1.24029  1.35148e-05   776  1350  -1.20   4.09  -9.64  -12.23  -66.65    0.49  5.000  0.000 0 1 0 2  3.438  3.438   1.30   12.49     0.00    0.00   1   15.00     0    0    0    25   0.0  1   1    7    0   0.000    0.000    0.000  1
  2   1    4  1 0 2    76  16   100   64   64     0.00000   1.24029  1.35148e-05   877  1525  -1.20   4.09  -9.64  -11.39  -61.72    0.38  5.000  0.000 0 1 0 2  3.438  3.438   1.30   12.49     0.00    0.00   1   15.00     0    0    0    25   0.0  1   1    7    0   0.000    0.000    0.000  1
  3   1    4  1 0 2    77  16   100   64   64     0.00000   1.24029  1.35148e-05   972  1690  -1.20   4.09  -9.64  -10.56  -56.80    0.28  5.000  0.000 0 1 0 2  3.438  3.438   1.30   12.49     0.00    0.00   1   15.00     0    0    0    25   0.0  1   1    7    0   0.000    0.000    0.000  1
  4   1    4  1 0 2    78  16   100   64   64     0.00000   1.24029  1.35148e-05   945  1642  -1.20   4.09  -9.64   -9.72  -51.87    0.18  5.000  0.000 0 1 0 2  3.438  3.438   1.30   12.49     0.00    0.00   1   15.00     0    0    0    25   0.0  1   1    7    0   0.000    0.000    0.000  1
  5   1    4  1 0 2    79  16   100   64   64     0.00000   1.24029  1.35148e-05  1040  1807  -1.20   4.09  -9.64   -8.88  -46.94    0.07  5.000  0.000 0 1 0 2  3.438  3.438   1.30   12.49     0.00    0.00   1   15.00     0    0    0    25   0.0  1   1    7    0   0.000    0.000    0.000  1
  6   1    4  1 0 2    80  16   100   64   64     0.00000   1.24029  1.35148e-05  1219  2119  -1.20   4.09  -9.64   -8.05  -42.01   -0.03  5.000  0.000 0 1 0 2  3.438  3.438   1.30   12.49     0.00    0.00   1   15.00     0    0    0    25   0.0  1   1    7    0   0.000    0.000    0.000  1
  7   1    4  1 0 2    81  16   100   64   64     0.00000   1.24029  1.35148e-05  1129  1963  -1.20   4.09  -9.64   -7.21  -37.08   -0.14  5.000  0.000 0 1 0 2  3.438  3.438   1.30   12.49     0.00    0.00   1   15.00     0    0    0    25   0.0  1   1    7    0   0.000    0.000    0.000  1
  8   1    4  1 0 2    82  16   100   64   64     0.00000   1.24029  1.35148e-05  1043  1813  -1.20   4.09  -9.64   -6.37  -32.15   -0.24  5.000  0.000 0 1 0 2  3.438  3.438   1.30   12.49     0.00    0.00   1   15.00     0    0    0    25   0.0  1   1    7    0   0.000    0.000    0.000  1
  9   1    4  1 0 2    83  16   100   64   64     0.00000   1.24029  1.35148e-05  1061  1845  -1.20   4.09  -9.64   -5.53  -27.23   -0.35  5.000  0.000 0 1 0 2  3.438  3.438   1.30   12.49     0.00    0.00   1   15.00     0    0    0    25   0.0  1   1    7    0   0.000    0.000    0.000  1
